1.000000000000000 0.000000000000000
0.999959226468641 0.000006232946535
0.999836758168261 0.000024957945411
0.999632151013359 0.000056253700848
0.999344661631238 0.000100252144554
0.998973242487841 0.000157139584379
0.998516535006009 0.000227158335994
0.997972860617943 0.000310608861768
0.997340209676506 0.000407852448851
0.996616228132618 0.000519314466983
0.995798201868280 0.000645488256038
0.994883038556728 0.000786939703883
0.993867246903026 0.000944312587204
0.992746913100096 0.001118334761657
0.991517674317104 0.001309825303590
0.990174689019512 0.001519702723918
0.988712603903642 0.001748994396142
0.987125517213788 0.001998847365531
0.985406938197951 0.002270540735878
0.983549742450298 0.002565499864817
0.981546122886244 0.002885312639570
0.979387536101962 0.003231748153251
0.977064643886901 0.003606778159061
0.974567249689551 0.004012601747512
0.971884229887828 0.004451673772193
0.969003459792410 0.004926737644925
0.965911734421695 0.005440863234089
0.962594684240553 0.005997490733430
0.959036686263516 0.006600481526224
0.955220771201305 0.007254177254770
0.951128527695197 0.007963468521513
0.946740005158027 0.008733874899010
0.942033617348354 0.009571638214106
0.936986027401526 0.010483710733501
0.931571885619482 0.011476919516510
0.925763758105458 0.012558122380113
0.919532091978526 0.013734484020923
0.912845132733855 0.015013372132486
0.905668862415802 0.016402328131436
0.897966967766758 0.017909123682943
0.889700852422518 0.019541334991176
0.880829697904132 0.021305940264770
0.871310440280639 0.023208181157041
0.861097881864372 0.025250481423894
0.850145215152612 0.027432561541782
0.838405328156729 0.029754598116073
0.825831304073814 0.032215496753156
0.812376712985208 0.034808602976100
0.797996451321200 0.037518814232956
0.782650576719799 0.040334447221969
0.766307138295583 0.043252361339771
0.748942425465096 0.046269430335350
0.730543366682842 0.049383927824720
0.711110481391570 0.052599265617933
0.690658340878515 0.055913359796661
0.669216541719304 0.059311515845407
0.646829333132258 0.062751225182783
0.623556832562828 0.066159366721163
0.599490022008008 0.069529108588376
0.574743459946903 0.072883194262297
0.549450867164867 0.076255166593144
0.523753100153056 0.079616460839211
0.497791511319381 0.082848065240721
0.471714971638160 0.085812277139802
0.445684519751174 0.088431922579455
0.419869331351669 0.090723324922411
0.394434178983494 0.092757835205056
0.369529469282414 0.094600977544049
0.345284921904407 0.096265603330356
0.321810533567809 0.097745026152095
0.299195383295822 0.099001385785018
0.277508163225173 0.099985865386538
0.256799001995767 0.100640761535340
0.237101495606666 0.100916935288153
0.218440380413025 0.100763418266826
0.200826165877432 0.100149271166196
0.184257970493126 0.099065056513260
0.168729284743407 0.097521909876514
0.154226736400140 0.095549114479778
0.140725997819222 0.093191627808299
0.128195910016046 0.090506200027662
0.116596763716953 0.087551707738821
0.105883628021440 0.084386760146963
0.096008022659217 0.081065827289356
0.086922072877502 0.077638982042712
0.078575584701208 0.074149914135586
0.070917847722721 0.070632955106091
0.063898989989313 0.067114404248645
0.057470354133392 0.063617307881134
0.051590625524339 0.060161559253036
0.046223500216104 0.056764029917839
0.041331957243454 0.053438865439243
0.036879205042942 0.050197695302431
0.032829524988911 0.047049861180005
0.029148397544360 0.044001439043297
0.025802681793290 0.041055023390397
0.022763170927016 0.038212826720061
0.020008921497820 0.035477385857897
0.017520339528475 0.032850702805537
0.015277436500671 0.030334034428897
0.013260432653065 0.027927987152195
0.011450171253697 0.025632610559717
0.009828391262717 0.023447486550150
0.008378170876674 0.021371703691305
0.007087143878294 0.019402703574227
0.005944970070834 0.017537357447284
0.004940483165914 0.015773146695045
0.004062201128820 0.014108039730346
0.003300308553087 0.012540725271303
0.002646288125412 0.011070378816656
0.002090843743273 0.009696091655369
0.001624254725263 0.008416874712887
0.001236745835052 0.007231690362112
0.000918757912705 0.006139480148994
0.000661796106001 0.005139408080706
0.000459718573332 0.004231267680466
0.000305953920250 0.003414534474732
0.000193308899686 0.002688295762732
0.000114453398494 0.002051413183967
0.000062291291118 0.001502650555723
0.000030242081254 0.001040773852125
0.000012452883213 0.000664628764363
0.000003955971547 0.000373200115855
0.000000783618745 0.000165656448221
0.000000049058269 0.000041382296919
0.000000000000000 0.000000000000000
0.000000046484159 -0.000040240883462
0.000000747619230 -0.000161130252920
0.000003817531570 -0.000363165280099
0.000012176444105 -0.000647155211268
0.000029925793420 -0.001014158681747
0.000062370371346 -0.001465407314428
0.000116049649403 -0.002002201611769
0.000198766459337 -0.002625770612980
0.000319615992501 -0.003337089023873
0.000489012033171 -0.004136641907771
0.000718706319323 -0.005024124313553
0.001021795606824 -0.005998059882573
0.001412709313134 -0.007055318351632
0.001907168425020 -0.008190506745390
0.002522103532291 -0.009395202667200
0.003275516219161 -0.010656990125264
0.004186263381192 -0.011958248361082
0.005273515717689 -0.013275877723287
0.006553717841003 -0.014593869873366
0.008039416629220 -0.015903906539289
0.009738819789580 -0.017199926608426
0.011653751182280 -0.018479180313403
0.013777061058210 -0.019743735234641
0.016103038362605 -0.020998840221082
0.018644989586157 -0.022248203326582
0.021420115856274 -0.023487667336361
0.024446827998731 -0.024708613268460
0.027744224264805 -0.025902688952611
0.031331770684706 -0.027062368643757
0.035228835959267 -0.028181707738444
0.039454031356284 -0.029257388518664
0.044024294349328 -0.030290148647750
0.048953637864023 -0.031286709889790
0.054252108523460 -0.032261503644671
0.059937687038088 -0.033221311538578
0.066040629155074 -0.034160070408448
0.072594498023671 -0.035071513224003
0.079636042980179 -0.035950280452696
0.087205525996430 -0.036792713024332
0.095346937242043 -0.037597797981505
0.104103916479226 -0.038364178237191
0.113517036067531 -0.039088955119010
0.123626315432773 -0.039772247522046
0.134470426031604 -0.040418816165119
0.146090627274587 -0.041032825640323
0.158533717330425 -0.041613950531966
0.171845259315933 -0.042163527920987
0.186064751275440 -0.042683352743318
0.201227076129178 -0.043177222581134
0.217362513715130 -0.043650748028754
0.234493624732651 -0.044107883926803
0.252633028344026 -0.044538277028539
0.271781255139218 -0.044922495204702
0.291924568301861 -0.045229993940435
0.313032493323238 -0.045421097809167
0.335055731514148 -0.045446185818705
0.357924995876154 -0.045268842987291
0.381551091408608 -0.044883665172757
0.405826277000670 -0.044313093855867
0.430626266768731 -0.043595075251918
0.455812071237937 -0.042760872660659
0.481232921223715 -0.041825856265190
0.506729150451766 -0.040764172317784
0.532139203871893 -0.039571601840465
0.557305179014025 -0.038270064738345
0.582075187311355 -0.036855492006990
0.606307380496241 -0.035303290092033
0.629878328581644 -0.033644860156273
0.652684484414600 -0.031938183676911
0.674640666238087 -0.030220900547784
0.695683180775694 -0.028550065633954
0.715766082755620 -0.026961378802233
0.734859529008413 -0.025463811084087
0.752947876225311 -0.024037759478141
0.770030014068011 -0.022664988087715
0.786117349141776 -0.021331511503078
0.801231130158247 -0.020022855876126
0.815401189371483 -0.018733693253971
0.828664003460330 -0.017467777532457
0.841060599184901 -0.016231534044936
0.852635108866787 -0.015034614189562
0.863432947932959 -0.013884389920131
0.873499822157089 -0.012785992031481
0.882880860740079 -0.011742507696527
0.891620027758424 -0.010755579206179
0.899759884353453 -0.009827372735003
0.907341087774317 -0.008959131521280
0.914402091485450 -0.008150488351158
0.920979080015116 -0.007399984357758
0.927106010274712 -0.006705740302280
0.932814574354275 -0.006065390054120
0.938134224815989 -0.005476104397600
0.943092267261128 -0.004934795449440
0.947713966167057 -0.004438277297387
0.952022657536240 -0.003983758364385
0.956039865855062 -0.003568856767660
0.959785422426836 -0.003191041424612
0.963277580317073 -0.002847703415038
0.966533125507433 -0.002536241643165
0.969567483202271 -0.002254122239873
0.972394818538803 -0.001998918269840
0.975028131264198 -0.001768334809346
0.977479344178775 -0.001560223281868
0.979759385319326 -0.001372588017302
0.981878263983160 -0.001203587284451
0.983845140782143 -0.001051530492288
0.985668391975426 -0.000914872828798
0.987355668366441 -0.000792208279117
0.988913949069606 -0.000682261715120
0.990349590459302 -0.000583880559134
0.991668370611476 -0.000496026381382
0.992875529539266 -0.000417766683385
0.993975805510393 -0.000348267039599
0.994973467717248 -0.000286783710519
0.995872345551763 -0.000232656797406
0.996675854717185 -0.000185303977814
0.997387020388357 -0.000144214839324
0.998008497611526 -0.000108945813938
0.998542589114298 -0.000079115705909
0.998991260676401 -0.000054401799884
0.999356154192427 -0.000034536533261
0.999638598538845 -0.000019304715741
0.999839618339165 -0.000008541279749
0.999959940703331 -0.000002129547115
1.000000000000000 0.000000000000000
